Index of pulse,TimeStamp,Tpi,Tpp,Tsys,Tdia,Tsp,Tdp,deltaT,Tsw10,Tsw25,Tsw33,Tsw50,Tsw66,Tsw75,Tsw90,Tdw10,Tdw25,Tdw33,Tdw50,Tdw66,Tdw75,Tdw90,Tpw10,Tpw25,Tpw33,Tpw50,Tpw66,Tpw75,Tpw90,Asp,Adn,Adp,Aoff,AUCpi,AUCsys,AUCdia
1,0,0.8833333333333333,0.7999999999999999,0.4666666666666667,0.39999999999999997,0.35,0.48333333333333334,0.13333333333333336,0.1333333333333333,0.1333333333333333,0.11666666666666664,0.09999999999999998,0.08333333333333331,0.08333333333333331,0.04999999999999999,0.4666666666666667,0.41666666666666674,0.3666666666666667,0.2833333333333333,0.21666666666666667,0.16666666666666674,0.06666666666666671,0.6,0.55,0.48333333333333334,0.3833333333333333,0.3,0.25000000000000006,0.1166666666666667,1.0072416221808218,0.6105397712728164,0.5477845173770788,-1.2662283114162451,-2.889810999520207,-1.640997089201878,-1.248813910318329
2,53,0.7833333333333334,0.75,0.55,0.4166666666666668,0.2666666666666666,0.36666666666666664,0.10000000000000003,0.21666666666666656,0.18333333333333324,0.16666666666666663,0.1333333333333333,0.11666666666666647,0.09999999999999987,0.06666666666666665,0.4500000000000002,0.40000000000000013,0.3500000000000001,0.28333333333333344,0.2333333333333334,0.20000000000000018,0.10000000000000009,0.6666666666666667,0.5833333333333334,0.5166666666666667,0.41666666666666674,0.34999999999999987,0.30000000000000004,0.16666666666666674,2.098168477484227,1.3005474449074557,1.9463375953449207,0.4908416580419709,8.287633184426301,2.506884233546649,5.780748950879652
3,100,0.7333333333333332,0.7666666666666666,0.35,0.3499999999999998,0.23333333333333317,0.38333333333333336,0.1500000000000002,0.18333333333333335,0.1499999999999999,0.1499999999999999,0.11666666666666647,0.09999999999999987,0.08333333333333326,0.04999999999999982,0.4500000000000002,0.3833333333333333,0.3666666666666667,0.30000000000000027,0.2333333333333334,0.16666666666666696,0.08333333333333348,0.6333333333333335,0.5333333333333332,0.5166666666666666,0.41666666666666674,0.33333333333333326,0.2500000000000002,0.1333333333333333,1.6312848642663784,1.303356655934929,1.2100059801987102,-0.3206629007762206,2.42923802895928,1.5247578259039858,0.9044802030552943
4,144,0.7666666666666666,0.7666666666666666,0.35,0.39999999999999997,0.2666666666666666,0.36666666666666664,0.10000000000000003,0.19999999999999973,0.18333333333333313,0.16666666666666652,0.1333333333333333,0.1166666666666667,0.09999999999999964,0.06666666666666643,0.4500000000000002,0.3833333333333333,0.3500000000000001,0.28333333333333366,0.21666666666666679,0.18333333333333357,0.08333333333333348,0.6499999999999999,0.5666666666666664,0.5166666666666666,0.41666666666666696,0.3333333333333335,0.2833333333333332,0.1499999999999999,2.0207724902816855,1.8421322564313978,1.7997196178528858,0.11666910242942485,-14.326048091200258,-4.68309889189524,-9.642949199305018
5,190,0.75,0.7500000000000004,0.55,0.19999999999999996,0.2666666666666666,0.55,0.28333333333333344,0.19999999999999973,0.16666666666666652,0.16666666666666652,0.1333333333333333,0.09999999999999964,0.09999999999999964,0.06666666666666643,0.41666666666666696,0.3666666666666667,0.3333333333333335,0.28333333333333366,0.21666666666666679,0.16666666666666696,0.08333333333333348,0.6166666666666667,0.5333333333333332,0.5,0.41666666666666696,0.31666666666666643,0.2666666666666666,0.1499999999999999,1.9058129690854535,0.9012168780404359,0.9012168780404359,-0.02852476457311548,0.10262844557885624,1.6547867074600888,-1.5521582618812326
6,235,0.7500000000000004,0.7333333333333334,0.5,0.2000000000000004,0.26666666666666705,0.55,0.283333333333333,0.21666666666666679,0.18333333333333357,0.16666666666666696,0.13333333333333375,0.11666666666666714,0.10000000000000053,0.06666666666666732,0.4333333333333327,0.38333333333333286,0.34999999999999964,0.2833333333333332,0.21666666666666679,0.18333333333333268,0.09999999999999964,0.6499999999999995,0.5666666666666664,0.5166666666666666,0.41666666666666696,0.3333333333333339,0.2833333333333332,0.16666666666666696,1.8313741457325268,1.1386632193973925,0.928233875806018,0.022727535011044298,-4.008197712665266,-0.16882954107360695,-3.8393681715916594
7,280,0.75,0.7666666666666666,0.55,0.4,0.25,0.35,0.09999999999999998,0.20000000000000018,0.16666666666666696,0.15000000000000036,0.13333333333333375,0.10000000000000053,0.08333333333333393,0.05000000000000071,0.4499999999999993,0.38333333333333286,0.34999999999999964,0.2833333333333332,0.21666666666666679,0.18333333333333268,0.09999999999999964,0.6499999999999995,0.5499999999999998,0.5,0.41666666666666696,0.3166666666666673,0.2666666666666666,0.15000000000000036,1.852692940915806,0.8640115648920839,1.6650038472817157,0.051078660756785466,-10.58857555142007,-3.551357568639934,-7.037217982780135
8,325,0.7333333333333334,0.7333333333333334,0.36666666666666664,0.33333333333333337,0.2666666666666666,0.4,0.13333333333333341,0.20000000000000018,0.16666666666666696,0.15000000000000036,0.13333333333333375,0.10000000000000053,0.10000000000000053,0.06666666666666732,0.4166666666666661,0.36666666666666625,0.33333333333333304,0.2833333333333332,0.21666666666666679,0.16666666666666607,0.08333333333333304,0.6166666666666663,0.5333333333333332,0.4833333333333334,0.41666666666666696,0.3166666666666673,0.2666666666666666,0.15000000000000036,1.7488134545409517,1.5059397701966646,1.4177570874949057,0.04611319853177309,-14.434275839068736,-5.4653265720040345,-8.968949267064701
9,369,0.7666666666666666,0.7666666666666666,0.55,0.38333333333333325,0.2666666666666666,0.38333333333333336,0.11666666666666675,0.20000000000000018,0.16666666666666696,0.16666666666666696,0.13333333333333375,0.11666666666666714,0.10000000000000053,0.06666666666666732,0.4333333333333327,0.36666666666666625,0.33333333333333304,0.2666666666666666,0.1999999999999993,0.14999999999999947,0.06666666666666643,0.6333333333333329,0.5333333333333332,0.5,0.40000000000000036,0.31666666666666643,0.25,0.13333333333333375,1.7777775683753148,0.7214913788121573,1.4288139391964936,-0.15103484433995673,4.551067612809688,3.961191031089196,0.5898765817204921
10,415,0.75,0.7333333333333334,0.5166666666666667,0.18333333333333335,0.2666666666666666,0.5666666666666667,0.30000000000000004,0.21666666666666679,0.18333333333333357,0.16666666666666696,0.15000000000000036,0.11666666666666714,0.10000000000000053,0.06666666666666732,0.4333333333333327,0.38333333333333286,0.34999999999999964,0.2833333333333332,0.21666666666666679,0.18333333333333268,0.09999999999999964,0.6499999999999995,0.5666666666666664,0.5166666666666666,0.43333333333333357,0.3333333333333339,0.2833333333333332,0.16666666666666696,1.9536845779845105,1.1362024700254822,0.9096427374011364,0.025987676935503856,-5.5836036347470674,-0.884917581338696,-4.698686053408371
11,460,0.7499999999999991,0.7666666666666666,0.35,0.36666666666666575,0.25,0.38333333333333336,0.13333333333333336,0.20000000000000018,0.16666666666666696,0.15000000000000036,0.13333333333333375,0.10000000000000053,0.10000000000000053,0.06666666666666732,0.4333333333333327,0.36666666666666625,0.33333333333333304,0.2666666666666666,0.2166666666666659,0.16666666666666696,0.06666666666666643,0.6333333333333329,0.5333333333333332,0.4833333333333334,0.40000000000000036,0.31666666666666643,0.2666666666666675,0.13333333333333375,1.8857319184073353,1.5991913942328726,1.505174253436191,0.06781453051020381,260.9490817911524,95.20837939390049,165.74070239725194
12,505,0.75,0.75,0.36666666666666664,0.36666666666666664,0.2666666666666675,0.38333333333333336,0.11666666666666586,0.23333333333333428,0.20000000000000107,0.18333333333333357,0.15000000000000036,0.13333333333333286,0.11666666666666714,0.08333333333333393,0.4166666666666661,0.36666666666666714,0.3333333333333339,0.2666666666666657,0.1999999999999993,0.16666666666666607,0.06666666666666643,0.6500000000000004,0.5666666666666682,0.5166666666666675,0.4166666666666661,0.33333333333333215,0.2833333333333332,0.15000000000000036,1.8031291514413936,1.5854514798618924,1.5413895061144771,0.01252726303513274,-3.607673486016015,-0.7595560290038864,-2.848117457012129
13,550,0.7666666666666675,0.75,0.5333333333333333,,0.2666666666666675,,,0.20000000000000107,0.18333333333333357,0.16666666666666607,0.13333333333333286,0.11666666666666714,0.09999999999999964,0.06666666666666643,0.43333333333333357,0.36666666666666714,0.3333333333333339,0.25,0.1999999999999993,0.15000000000000036,0.08333333333333393,0.6333333333333346,0.5500000000000007,0.5,0.38333333333333286,0.31666666666666643,0.25,0.15000000000000036,1.8299032521284835,0.8220604733576995,,-0.08344993774830445,4.312797168897107,3.841970565520945,0.47082660337616167
14,596,0.7999999999999989,0.8166666666666664,0.5666666666666667,0.4166666666666656,0.25,0.38333333333333336,0.13333333333333336,0.20000000000000107,0.16666666666666607,0.15000000000000036,0.13333333333333286,0.09999999999999964,0.08333333333333393,0.05000000000000071,0.4833333333333325,0.43333333333333357,0.40000000000000036,0.31666666666666643,0.25,0.1999999999999993,0.09999999999999964,0.6833333333333336,0.5999999999999996,0.5500000000000007,0.4499999999999993,0.34999999999999964,0.2833333333333332,0.15000000000000036,1.9812816496842194,0.9464255995781558,1.69740197827847,-0.06611699547609606,4.015267126327777,3.828637670299818,0.18662945602795933
15,644,0.8333333333333339,0.8499999999999996,0.6,0.45000000000000057,0.2666666666666675,0.38333333333333336,0.11666666666666586,0.21666666666666679,0.18333333333333357,0.16666666666666607,0.13333333333333286,0.11666666666666714,0.09999999999999964,0.06666666666666643,0.5,0.4166666666666661,0.38333333333333286,0.31666666666666643,0.25,0.21666666666666679,0.09999999999999964,0.7166666666666668,0.5999999999999996,0.5499999999999989,0.4499999999999993,0.36666666666666714,0.31666666666666643,0.16666666666666607,2.035371896436873,0.9131783685131993,1.8145549337288172,0.042518344632665794,-27.08775162683818,-11.667449198255726,-15.420302428582454
16,694,0.8333333333333339,0.8166666666666664,0.5833333333333334,0.45000000000000057,0.2833333333333332,0.38333333333333336,0.10000000000000014,0.21666666666666679,0.18333333333333357,0.16666666666666607,0.15000000000000036,0.11666666666666714,0.09999999999999964,0.06666666666666643,0.4833333333333343,0.41666666666666785,0.36666666666666714,0.3000000000000007,0.23333333333333428,0.20000000000000107,0.11666666666666714,0.7000000000000011,0.6000000000000014,0.5333333333333332,0.45000000000000107,0.3500000000000014,0.3000000000000007,0.18333333333333357,1.9889750117048384,1.0159466644968704,1.8183006848719712,0.08102163545263563,28.85211442884595,16.067555827282234,12.784558601563717
17,744,0.7833333333333332,0.8000000000000007,0.5833333333333334,0.4166666666666666,0.2666666666666657,0.36666666666666664,0.10000000000000092,0.1999999999999993,0.18333333333333357,0.16666666666666607,0.13333333333333286,0.11666666666666536,0.09999999999999964,0.06666666666666643,0.45000000000000107,0.38333333333333464,0.3500000000000014,0.2833333333333332,0.23333333333333428,0.18333333333333357,0.08333333333333393,0.6500000000000004,0.5666666666666682,0.5166666666666675,0.4166666666666661,0.34999999999999964,0.2833333333333332,0.15000000000000036,1.823034865158574,0.7442871261584558,1.6112240932665118,0.0005394448470683599,-1.6172499193321392,0.8537707884525049,-2.471020707784644
18,791,0.8166666666666664,0.8166666666666664,0.55,,0.2833333333333332,,,0.21666666666666679,0.18333333333333357,0.16666666666666607,0.15000000000000036,0.11666666666666714,0.09999999999999964,0.06666666666666643,0.4666666666666668,0.4166666666666661,0.38333333333333286,0.3000000000000007,0.21666666666666679,0.18333333333333357,0.09999999999999964,0.6833333333333336,0.5999999999999996,0.5499999999999989,0.45000000000000107,0.3333333333333339,0.2833333333333332,0.16666666666666607,1.9364982304751028,1.025525278933,,-0.13356880311477415,6.2524295658250395,4.703223642088464,1.5492059237365758
19,840,0.8333333333333339,0.8333333333333339,0.6,0.45000000000000057,0.2833333333333332,0.38333333333333336,0.10000000000000014,0.21666666666666679,0.18333333333333357,0.16666666666666607,0.15000000000000036,0.11666666666666714,0.09999999999999964,0.06666666666666643,0.4833333333333343,0.4166666666666661,0.38333333333333286,0.3000000000000007,0.23333333333333428,0.1999999999999993,0.09999999999999964,0.7000000000000011,0.5999999999999996,0.5499999999999989,0.45000000000000107,0.3500000000000014,0.29999999999999893,0.16666666666666607,2.064115429471945,0.9582695165567936,1.85577730218992,0.012731532770044796,-5.046883978571271,-0.8350663057062306,-4.211817672865041
20,890,0.8666666666666654,0.8499999999999996,0.6166666666666667,0.483333333333332,0.2833333333333332,0.38333333333333336,0.10000000000000014,0.21666666666666679,0.18333333333333357,0.16666666666666785,0.15000000000000036,0.11666666666666714,0.09999999999999964,0.06666666666666643,0.5333333333333332,0.4666666666666668,0.40000000000000036,0.31666666666666643,0.25,0.21666666666666679,0.11666666666666536,0.75,0.6500000000000004,0.5666666666666682,0.4666666666666668,0.36666666666666714,0.31666666666666643,0.1833333333333318,2.0251039744392827,0.9379490697269124,1.855135587623002,0.0654031871405949,30.93619849716937,17.545478544463585,13.390719952705787
21,942,0.8166666666666664,0.8333333333333339,0.35,0.4166666666666664,0.2666666666666675,0.4,0.13333333333333253,0.1999999999999993,0.18333333333333357,0.16666666666666607,0.13333333333333286,0.11666666666666714,0.09999999999999964,0.06666666666666643,0.4833333333333325,0.4333333333333318,0.40000000000000036,0.3166666666666682,0.24999999999999822,0.21666666666666679,0.08333333333333393,0.6833333333333318,0.6166666666666654,0.5666666666666664,0.45000000000000107,0.36666666666666536,0.31666666666666643,0.15000000000000036,1.8554668414498727,1.6846199697635855,1.5983442752752097,0.054263467632965634,28.69275750093561,11.24204110796594,17.450716392969667
